#o/p  it       t_pb[ms]       level        ejecta_mass[M]      ejecta_KE[erg]     ejecta_IE[erg]     ejecta_ME[erg]     ejecta_TE[erg]
0  27000  -0.8275862069862288  5     0.0     0.0     0.0     0.0     0.0
1  29000  0.15763546794796593  5     0.0     0.0     0.0     0.0     0.0
2  32000  1.635467980349258  5     0.0     0.0     0.0     0.0     0.0
3  34000  2.620689655283453  5     0.0     0.0     0.0     0.0     0.0
4  37000  4.098522167684745  5     0.0     0.0     0.0     0.0     0.0
5  39000  5.08374384261894  5     0.0     0.0     0.0     0.0     0.0
6  41000  6.068965517553134  5     0.0     0.0     0.0     0.0     0.0
7  44000  7.546798029954426  5     0.0     0.0     0.0     0.0     0.0
8  46000  8.53201970488862  5     0.0     0.0     0.0     0.0     0.0
9  49000  10.009852217289913  5     0.0     0.0     0.0     0.0     0.0
10  51000  10.995073892224108  5     0.0     0.0     0.0     0.0     0.0
11  53000  11.980295567158302  5     0.0     0.0     0.0     0.0     0.0
12  56000  13.458128079559595  5     0.0     0.0     0.0     0.0     0.0
13  59000  14.935960591960887  5     0.0     0.0     0.0     0.0     0.0
14  62000  16.413793104362178  5     0.0     0.0     0.0     0.0     0.0
15  65000  17.89162561676347  5     0.0     0.0     0.0     0.0     0.0
16  69000  19.86206896663186  5     0.0     0.0     0.0     0.0     0.0
17  72000  21.339901479033152  5     0.0     0.0     0.0     0.0     0.0
18  76000  23.310344828901542  5     0.0     0.0     0.0     0.0     0.0
19  79000  24.788177341302834  5     0.0     0.0     0.0     0.0     0.0
20  83000  26.758620691171224  5     0.0     0.0     0.0     0.0     0.0
21  86000  28.236453203572516  5     0.0     0.0     0.0     0.0     0.0
22  90000  30.206896553440906  5     0.0     0.0     0.0     0.0     0.0
23  93000  31.6847290658422  5     0.0     0.0     0.0     0.0     0.0
24  95000  32.66995074077639  5     0.0     0.0     0.0     0.0     0.0
25  98000  34.147783253177685  5     0.0     0.0     0.0     0.0     0.0
26  101000  35.62561576557898  5     0.0     0.0     0.0     0.0     0.0
27  105000  37.59605911544737  5     2.4760411881928203e-06     2.429303519011106e+45     1.82187984190426e+46     4.004424233294186e+46     6.069234427099556e+46
28  108000  39.07389162784866  5     1.1534049961562233e-05     7.985689512268884e+45     6.354400688747802e+46     2.044341832802477e+47     2.759638796799946e+47
29  112000  41.04433497771705  5     2.7820219558059543e-05     3.3859043937349036e+46     2.3167810027836293e+47     5.141508005643436e+47     7.796879447800556e+47
30  115000  42.52216749011834  5     6.17618807509947e-05     6.134055050762028e+46     4.3886797789795966e+47     1.175472296223705e+48     1.675680824629285e+48
31  119000  44.49261083998673  5     0.00012082418829460073     1.953439530815881e+47     5.716131249663578e+47     2.5212018903485432e+48     3.288158968396489e+48
32  122000  45.970443352388024  5     0.00013999220874250166     3.2813934608555455e+47     4.692677702138412e+47     3.045088132308116e+48     3.8424952486075114e+48
33  126000  47.940886702256414  5     0.0001424104933747451     3.5280492862710537e+47     3.189742398620478e+47     3.342114923679029e+48     4.0138940921681826e+48
34  130000  49.911330052124804  5     0.00013968540183551418     3.017909061124493e+47     2.767730430269323e+47     3.450808967332839e+48     4.029372916472221e+48
35  133000  51.389162564526096  5     0.00016025743587083402     3.4559958994525744e+47     4.304754770027496e+47     3.9501007343735925e+48     4.726175801321599e+48
36  137000  53.35960591439448  5     0.00017044348265777076     3.593237626929765e+47     5.7794146797960314e+47     4.282179235445105e+48     5.219444466117685e+48
37  140000  54.83743842679577  5     0.0001623264748842133     2.9945566063045925e+47     6.373530348419694e+47     4.115287973297085e+48     5.0520966687695136e+48
38  144000  56.80788177666416  5     0.00015619663400170204     2.6336840095798385e+47     6.896231875028131e+47     3.6476580676562844e+48     4.6006496561170814e+48
39  147000  58.28571428906545  5     0.00017110929488468526     3.4030237597361445e+47     7.367666827680888e+47     3.7506042492706197e+48     4.827673308012323e+48
40  151000  60.25615763893384  5     0.00022945690879683535     6.049265600383765e+47     9.84215097634146e+47     4.7603694126736e+48     6.349511070346122e+48
41  154000  61.733990151335135  5     0.00027507201081722164     8.295628391721834e+47     1.1684619424611128e+48     5.765294503274872e+48     7.763319284908169e+48
42  158000  63.704433501203525  5     0.00032518214902678243     1.1264899245575346e+48     1.4932955656266935e+48     7.02898976596041e+48     9.648775256144638e+48
43  162000  65.67487685107191  5     0.00035885346955832485     1.291617878239141e+48     1.7655875108429466e+48     8.460754457886591e+48     1.1517959846968678e+49
44  165000  67.1527093634732  5     0.0003607439881912899     1.2228680685044883e+48     1.9170132531779454e+48     8.945406234634876e+48     1.208528755631731e+49
45  168000  68.6305418758745  5     0.0003802106944600297     1.2045877668946506e+48     2.241051776127023e+48     9.36311360007716e+48     1.2808753143098834e+49
46  172000  70.60098522574289  5     0.00041358606134991627     1.2986526096081252e+48     2.642818260829661e+48     1.0022066007734396e+49     1.3963536878172183e+49
47  175000  72.07881773814418  5     0.0004412166254148886     1.3707467903937441e+48     2.997347761130545e+48     1.0600385614180134e+49     1.4968480165704422e+49
48  179000  74.04926108801257  5     0.0005129745091320268     1.7890020677228307e+48     3.567357407447166e+48     1.1560902694035257e+49     1.6917262169205252e+49
49  182000  75.52709360041386  5     0.0005952066052709435     2.4054547189876555e+48     4.062783079094727e+48     1.2572567863853671e+49     1.9040805661936054e+49
50  186000  77.49753695028225  5     0.00081600807139166     3.761366881678719e+48     5.4082371609069295e+48     1.602453696471786e+49     2.5194141007303506e+49
51  189000  78.97536946268355  5     0.001071382916473344     5.624313725714188e+48     7.147388331503931e+48     2.0518894816778867e+49     3.3290596873996984e+49
52  193000  80.94581281255194  5     0.001288267501393127     7.012200420839965e+48     8.439693445779817e+48     2.5181543903590677e+49     4.063343777021046e+49
53  196000  82.42364532495323  5     0.0014198454512813002     7.852573539020712e+48     8.90618478437734e+48     2.788744141425716e+49     4.4646199737655214e+49
54  200000  84.39408867482162  5     0.001522538061672622     7.955620554148387e+48     9.507427804447496e+48     3.147179521451494e+49     4.893484357311082e+49
55  203000  85.87192118722291  5     0.0017114264029945805     8.905030527198625e+48     1.0783196251420633e+49     3.72509503858582e+49     5.693917716447746e+49
56  206000  87.3497536996242  5     0.0019004028278394804     9.934212452350463e+48     1.1977427149489e+49     4.286013238488678e+49     6.477177198672625e+49
57  210000  89.32019704949259  5     0.0020675619809834367     1.1186161906620728e+49     1.3505651692233452e+49     4.727348075970684e+49     7.196529435856102e+49
58  213000  90.79802956189388  5     0.0021554605701121403     1.17744444877511e+49     1.4604489471188376e+49     4.850093013368063e+49     7.48798640926201e+49
59  217500  93.01477833049582  5     0.0022575034439508714     1.2291569355615764e+49     1.5676020961470893e+49     5.059797314168099e+49     7.856556345876765e+49
60  220000  94.24630542416357  5     0.0024350112475153645     1.3011536815961306e+49     1.667408379660459e+49     5.41137783410983e+49     8.37993989536642e+49
61  223000  95.72413793656486  5     0.0027066605895559063     1.5258882968885466e+49     1.8232829604081668e+49     5.87512074605442e+49     9.224292003351133e+49
62  226000  97.20197044896615  5     0.00295156232820612     1.756715711865625e+49     1.9538283681732157e+49     6.314052101666577e+49     1.0024596181705418e+50
63  228000  98.18719212390035  5     0.003108957398056588     1.9097063575068106e+49     2.0539901431332914e+49     6.591957447372896e+49     1.0555653948012998e+50
64  231000  99.66502463630164  5     0.003533344661807093     2.3828610660488026e+49     2.324506791687186e+49     7.107043443245693e+49     1.1814411300981681e+50
65  234000  101.14285714870293  5     0.0037746515084082985     2.6471392953682835e+49     2.51355800318511e+49     7.38736423575781e+49     1.2548061534311205e+50
66  236000  102.12807882363713  5     0.003845898162318498     2.782149075136516e+49     2.5134605491037793e+49     7.468785134142247e+49     1.2764394758382543e+50
67  238000  103.11330049857132  5     0.003946757405675735     2.9077254779673125e+49     2.559089197477288e+49     7.552066611764976e+49     1.3018881287209576e+50
68  241000  104.59113301097261  5     0.0039847573829933855     2.8381436491287525e+49     2.5947232612124733e+49     7.559380198962281e+49     1.2992247109303506e+50
69  243000  105.57635468590681  5     0.00403055753236989     2.774370923758564e+49     2.606562224468525e+49     7.574466587087811e+49     1.29553997353149e+50
70  243000  105.57635468590681  5     0.00403055753236989     2.774370923758564e+49     2.606562224468525e+49     7.574466587087811e+49     1.29553997353149e+50
71  245000  106.561576360841  5     0.004051151684254992     2.717737711220511e+49     2.5365132865577566e+49     7.610962765191642e+49     1.2865213762969908e+50
72  247000  107.5467980357752  5     0.004097184715502931     2.725167397019937e+49     2.47768314288097e+49     7.727785825581532e+49     1.293063636548244e+50
73  249000  108.53201971070939  5     0.004176474358632555     2.755274486640032e+49     2.4093038179534905e+49     7.901176929730677e+49     1.3065755234324199e+50
74  251000  109.51724138564359  5     0.004215684672061454     2.7168665909234473e+49     2.3429660775808726e+49     7.986505079814293e+49     1.3046337748318612e+50
75  252000  110.00985222311068  5     0.0042518399197824545     2.7291013047795035e+49     2.317367389969105e+49     8.029836364849838e+49     1.3076305059598447e+50
76  254000  110.99507389804488  5     0.004363565030579935     2.7948026064096754e+49     2.3565588528145866e+49     8.157827299111648e+49     1.330918875833591e+50
77  256000  111.98029557297907  5     0.004476861687248371     2.832474497309217e+49     2.3958537882479237e+49     8.252994554370609e+49     1.348132283992775e+50
78  257000  112.47290641044617  5     0.004527274805128841     2.850537688818696e+49     2.410781356987525e+49     8.29347305972423e+49     1.3554792105530453e+50
79  259000  113.45812808538037  5     0.004584020335900768     2.829500532911298e+49     2.436680082193115e+49     8.33011516705281e+49     1.3596295782157222e+50
80  260000  113.95073892284746  5     0.004603778759283451     2.822806358144576e+49     2.4372363465132113e+49     8.350438820380312e+49     1.36104815250381e+50
81  262000  114.93596059778166  5     0.004687376401925285     2.8614888813309654e+49     2.465904931263191e+49     8.40969977702422e+49     1.3737093589618378e+50
82  263000  115.42857143524876  5     0.004740920358933304     2.8808938001573985e+49     2.5071643964985385e+49     8.449780379092159e+49     1.3837838575748097e+50
83  264000  115.92118227271585  5     0.0047585113818919365     2.860040344675347e+49     2.525852196455421e+49     8.469618245633122e+49     1.385551078676389e+50
84  265000  116.41379311018295  5     0.00474069568655958     2.8069524334692214e+49     2.4967358785722215e+49     8.464150948773964e+49     1.3767839260815405e+50
85  267000  117.39901478511715  5     0.004688931339864778     2.7059235895601545e+49     2.4159274265468486e+49     8.435775571056189e+49     1.3557626587163192e+50
86  268000  117.89162562258424  5     0.00469818012293506     2.7091172784269424e+49     2.379201354845649e+49     8.45100844107313e+49     1.3539327074345721e+50
87  269000  118.38423646005134  5     0.004719617811492071     2.728419582697776e+49     2.3411821940443345e+49     8.491094699039453e+49     1.3560696475781562e+50
88  270000  118.87684729751844  5     0.00478245970628086     2.795229824088988e+49     2.338790137952597e+49     8.572182736520751e+49     1.3706202698562337e+50
89  271000  119.36945813498554  5     0.004859285028215287     2.899423247334034e+49     2.3590204298543056e+49     8.670125161131022e+49     1.3928568838319362e+50
90  272000  119.86206897245263  5     0.0049366642912696025     2.990189805874323e+49     2.382975794187246e+49     8.771155927591809e+49     1.4144321527653377e+50
91  274000  120.84729064738683  5     0.00506147019068978     3.131911393704929e+49     2.408506404926456e+49     8.966694811645503e+49     1.4507112610276889e+50
92  274000  120.84729064738683  5     0.005060148471298004     3.130063553661442e+49     2.4096493267829753e+49     8.964764654221693e+49     1.4504477534666112e+50
93  277000  122.32512315978812  5     0.005104111075833155     3.1124163113534813e+49     2.4079496712592447e+49     9.086140319045684e+49     1.460650630165841e+50
94  279000  123.31034483472231  5     0.005160052991174824     3.165011486765685e+49     2.3855551610795213e+49     9.186508901793831e+49     1.4737075549639037e+50
95  280000  123.80295567218941  5     0.005183129073990073     3.169913499336115e+49     2.3946511311790624e+49     9.234991558518763e+49     1.4799556189033942e+50
96  282000  124.78817734712361  5     0.005219396335378479     3.1743627312749227e+49     2.395512165042904e+49     9.309601044013335e+49     1.4879475940331162e+50
97  283000  125.2807881845907  5     0.0052416275912053585     3.18616581258039e+49     2.3891988769833907e+49     9.34625216046933e+49     1.4921616850033112e+50
98  285000  126.2660098595249  5     0.005326820927254209     3.2822690636310246e+49     2.3951580556104755e+49     9.491885762408513e+49     1.5169312881650014e+50
99  286000  126.758620696992  5     0.0053509774821369985     3.298128227317774e+49     2.3939393284448076e+49     9.554178586153659e+49     1.5246246141916241e+50
100  287000  127.25123153445908  5     0.005369215616885781     3.300150616027595e+49     2.406590576193437e+49     9.605266168100624e+49     1.5312007360321655e+50
101  289000  128.2364532093933  5     0.005460622921062377     3.3487380889664393e+49     2.463583503873549e+49     9.790272676829854e+49     1.5602594269669842e+50
102  290000  128.72906404686037  5     0.005497772454734353     3.3606059588366e+49     2.486840202073348e+49     9.86447734281224e+49     1.5711923503722187e+50
103  292000  129.71428572179457  5     0.005577465328872818     3.4313757347259643e+49     2.5049196178115045e+49     1.0031206114952228e+50     1.5967501467489695e+50
104  294000  130.69950739672876  5     0.005626575895584085     3.478930702503765e+49     2.4846777140835626e+49     1.0189313694790552e+50     1.615292211137788e+50
105  296000  131.68472907166296  5     0.005685549746211295     3.552634040467e+49     2.4812976620000107e+49     1.0324731967758101e+50     1.6358663670225111e+50
